Raman shift / cm-1,Low disorder,Intermediate,High disorder
1000,20.5,21,22
1002,19,19,26.5
1004,20.5,18,26
1006,21,26.5,29
1008,17,17.5,20.5
1010,14,21.5,19
1012,19,21,20
1014,18,19.5,25.5
1016,18,15.5,21.5
1018,21.5,21.5,29
1020,16,19.5,28.5
1022,15.5,18,22.5
1024,19.5,23,28.5
1026,16.5,18,16.5
1028,15.5,20.5,25
1030,16,17.5,20.5
1032,20.5,21,24.5
1034,17,22.5,29.5
1036,24,17.5,22
1038,18,26,17
1040,21,19.5,32.5
1042,20,21,25
1044,21.5,17,27.5
1046,20,22.5,25
1048,12.5,17,35.5
1050,23.5,15,23
1052,17,19,25
1054,21,19,30
1056,21.5,20.5,32
1058,17.5,28,22
1060,20,25,30.5
1062,22.5,16.5,30
1064,17,26.5,29.5
1066,25,22.5,34.5
1068,17,22,26.5
1070,21,20.5,27
1072,14.5,19,27.5
1074,24,21,28
1076,21,16.5,28.5
1078,24.5,27.5,26
1080,18,26,34.5
1082,23,18.5,25.5
1084,18,28,26
1086,22,27.5,30
1088,24,23,28
1090,20,23.5,30
1092,21,22.5,30
1094,23,25.5,29
1096,19,20.5,29.5
1098,21,19,31.5
1100,18,17.5,32.5
1102,23,21,28
1104,19.5,22.5,27
1106,17.5,25,30
1108,14.5,22,24.5
1110,20.5,24,30
1112,18,18.5,35.5
1114,15.5,24,28
1116,25.5,23,29.5
1118,21.5,22.5,32.5
1120,21,15.5,37.5
1122,20.5,25.5,39.5
1124,16.5,25,31.5
1126,24,18,29
1128,18,28.5,30
1130,24.5,17,27
1132,18,23,28
1134,25,20,33.5
1136,28,28,43
1138,15.5,28,33
1140,24,22,25.5
1142,20,34.5,29.5
1144,24,28,35.5
1146,19,25,33.5
1148,19,25.5,36
1150,17,20,39
1152,18.5,21,42
1154,18,22,35.5
1156,18.5,22.5,29
1158,24.5,25.5,34
1160,21.5,28,32
1162,18.5,20,43
1164,21,23.5,31
1166,19.5,27.5,36
1168,21.5,21.5,47
1170,24.5,28.5,39.5
1172,26,28.5,41.5
1174,21.5,31,39.5
1176,27,22.5,44.5
1178,22.5,27,33
1180,22,32,38
1182,22,25,40
1184,21.5,31.5,37
1186,19,23,38
1188,28.5,24.5,49.5
1190,19,21,49
1192,20.5,29,45.5
1194,22.5,28,42.5
1196,24,40,32
1198,17.5,26.5,46.5
1200,18.5,24.5,49
1202,22,23.5,47.5
1204,24.5,22,45.5
1206,21,30,44.5
1208,25.5,35,44
1210,20,34.5,51
1212,26,26,56
1214,26,29.5,52.5
1216,21.5,30,48.5
1218,23.5,34.5,56
1220,22,32.5,51
1222,30,25,55.5
1224,27,34,63
1226,25.5,27.5,56.5
1228,21.5,35,68
1230,23,28.5,60
1232,26,33.5,63
1234,21,35.5,62.5
1236,26.5,31,69
1238,18,33.5,76.5
1240,26.5,35.5,69
1242,22,30.5,68
1244,20.5,37,73.5
1246,24.5,38,81
1248,32.5,38.5,79.5
1250,22.5,41,87.5
1252,24,34,74
1254,20.5,37.5,91.5
1256,17.5,35,80.5
1258,21.5,35,90
1260,24.5,50.5,86
1262,21,46.5,87
1264,26,46,77.5
1266,23.5,43,99.5
1268,21.5,41.5,114.5
1270,23.5,57.5,96
1272,19.5,47.5,105.5
1274,23,57,106
1276,19.5,47,136
1278,25.5,53.5,99
1280,27,49.5,124
1282,30.5,50.5,142.5
1284,22.5,64.5,138.5
1286,37,48.5,149
1288,28.5,61.5,163
1290,32,60,162.5
1292,27,57,161
1294,31.5,65,201.5
1296,28.5,67,201
1298,22.5,73,207
1300,31.5,81,212.5
1302,38.5,81.5,233
1304,32,100,237
1306,29,96,280.5
1308,32.5,102.5,313
1310,32.5,101.5,286.5
1312,37,121,335.5
1314,33,143.5,342
1316,41.5,138.5,398.5
1318,42,158,419.5
1320,38.5,172.5,452.5
1322,43.5,194.5,462
1324,54,198.5,501
1326,49.5,232,529.5
1328,52.5,227.5,564
1330,51,263.5,636.5
1332,71,271.5,630
1334,74.5,305.5,703.5
1336,80,342.5,727.5
1338,83,364,700.5
1340,97.5,370.5,786.5
1342,87.5,399.5,766
1344,113.5,426.5,773.5
1346,123,451,809.5
1348,112.5,440.5,809
1350,129,445,832.5
1352,125,453,817.5
1354,116,434,784.5
1356,108,422.5,831.5
1358,113,415.5,782
1360,101.5,391,762.5
1362,83,362,746.5
1364,95.5,336,739
1366,68.5,316,663.5
1368,63,294,625
1370,57,242,598.5
1372,55.5,273,546
1374,52,218,568
1376,47,210,486
1378,45,184.5,500.5
1380,44,165.5,401
1382,35,164,426.5
1384,38,148.5,360
1386,39.5,128,374.5
1388,33.5,116,334.5
1390,32.5,119,335.5
1392,36,102.5,287.5
1394,32.5,98,276
1396,30,87,259.5
1398,32,80.5,230.5
1400,29,91,239.5
1402,30.5,78.5,237
1404,28.5,76,196.5
1406,23.5,78.5,190
1408,32.5,84,180.5
1410,23,62.5,183.5
1412,32,59.5,159.5
1414,35.5,61,157.5
1416,30,53,147.5
1418,25.5,64,147.5
1420,25.5,56,137.5
1422,34,50,122
1424,22.5,56.5,139.5
1426,22,48.5,125.5
1428,28,62.5,129
1430,26.5,52,121
1432,23.5,49.5,125.5
1434,26,41.5,107.5
1436,36.5,51.5,110
1438,30.5,44.5,113.5
1440,24.5,44.5,94
1442,26,44.5,111
1444,27.5,56.5,99
1446,27.5,50,101
1448,19,54,93
1450,29,50,86
1452,24.5,45,90.5
1454,31.5,54,98.5
1456,23.5,41.5,85
1458,34.5,53.5,83
1460,34.5,38.5,87.5
1462,30.5,45.5,77.5
1464,28.5,43,86
1466,31,48.5,80
1468,25.5,38,86
1470,31,58,76
1472,33.5,41,92
1474,30.5,42,77
1476,27,42.5,87.5
1478,32.5,41.5,82.5
1480,26,45.5,70
1482,31,46.5,91.5
1484,31,46.5,77
1486,26.5,46.5,90.5
1488,31,44.5,88.5
1490,31.5,42,100
1492,30.5,57,81.5
1494,27,47.5,84.5
1496,28.5,56,78
1498,29,49.5,84.5
1500,32.5,48.5,89
1502,35.5,44.5,101.5
1504,34,53.5,105.5
1506,35,50.5,99.5
1508,41.5,54,98.5
1510,30,50.5,94.5
1512,43.5,55,96.5
1514,38,53.5,109
1516,45,60,102.5
1518,49,63.5,104.5
1520,45,65,120
1522,34.5,64,105.5
1524,40,78,112.5
1526,43.5,66,126.5
1528,48,56.5,136.5
1530,54,76,139.5
1532,48.5,89,146.5
1534,56.5,86,160.5
1536,52,100,177
1538,68.5,87,170
1540,64,101,211.5
1542,69,108.5,194.5
1544,69.5,103,238.5
1546,81.5,122,253
1548,72.5,134,250
1550,82,147,281
1552,82.5,171.5,324
1554,103,181,355
1556,116,219,389
1558,136.5,250.5,432
1560,151.5,284,474
1562,170,301.5,523.5
1564,230,353,586.5
1566,247.5,436,611.5
1568,321.5,460.5,638.5
1570,399.5,507,672
1572,450,594,762
1574,523.5,648.5,815
1576,649.5,758.5,845.5
1578,707.5,781.5,905
1580,706.5,799.5,911.5
1582,800.5,824,919.5
1584,774.5,803.5,906.5
1586,713,749,859
1588,618.5,757.5,848
1590,515.5,662,835.5
1592,435.5,605.5,746
1594,349,529.5,700.5
1596,315,461.5,673.5
1598,255,432.5,623
1600,186.5,329,562
1602,185.5,317,494.5
1604,146,290.5,486.5
1606,125.5,237.5,397.5
1608,108,206.5,378
1610,106.5,178,351.5
1612,102,174,315.5
1614,84,141.5,330.5
1616,79.5,140,261
1618,72.5,121,228
1620,66.5,111,227.5
1622,67.5,114,201.5
1624,61.5,113,181.5
1626,70.5,84.5,168.5
1628,61.5,89,154.5
1630,57.5,66.5,146
1632,44.5,73,150
1634,53.5,74.5,133
1636,47.5,68.5,131
1638,43,62,122.5
1640,49.5,73.5,114
1642,34,63,113
1644,52,57.5,106.5
1646,45,50,100
1648,40.5,59,91.5
1650,41.5,49,95
1652,43,54,93.5
1654,42.5,55.5,81.5
1656,36.5,45,74.5
1658,37,49.5,74
1660,36,49,85.5
1662,35.5,51.5,68
1664,39,53,76
1666,33,41,63.5
1668,32,40.5,61.5
1670,33.5,42.5,69.5
1672,39,39.5,76.5
1674,30.5,46,65.5
1676,35.5,50,66.5
1678,37,38,61
1680,24,41,55
1682,29.5,37.5,53.5
1684,31.5,49,52.5
1686,32,44,55.5
1688,27.5,32,50.5
1690,25.5,39,58.5
1692,30.5,42,61.5
1694,34.5,36.5,55.5
1696,34,37,44
1698,31,41.5,49.5
1700,28.5,38,48
1702,28,39,38
1704,34.5,35.5,44
1706,29,38,51.5
1708,37,39,50.5
1710,31.5,39,39.5
1712,27,37.5,47.5
1714,31,34.5,47
1716,30,36.5,43
1718,32,32,48
1720,27.5,30.5,48.5
1722,27,33,33.5
1724,32,29,53.5
1726,33.5,37.5,47.5
1728,31,40,37
1730,29.5,41.5,41.5
1732,25.5,33.5,42.5
1734,33,37,49.5
1736,25.5,28,41.5
1738,22.5,31,40
1740,30,33,40.5
1742,29.5,26,38.5
1744,33.5,38.5,37.5
1746,31,26.5,47
1748,28,42,40
1750,30,26.5,43.5
1752,29.5,33,34.5
1754,30.5,38.5,35
1756,29,28.5,42.5
1758,29,32,37
1760,34.5,31,37.5
1762,30,36,44.5
1764,25.5,31.5,35.5
1766,32,29.5,41.5
1768,27.5,27.5,40
1770,24.5,30.5,34.5
1772,28.5,31.5,33
1774,33.5,32,44
1776,32,25.5,29.5
1778,32.5,39.5,37.5
1780,25.5,32,24.5
1782,33.5,24,32.5
1784,29,24.5,34
1786,27.5,27,34
1788,28.5,34,36.5
1790,28,22,39
1792,24,28.5,45
1794,21,33,33
1796,35,30,31
1798,29.5,31,29.5
1800,26,30,34.5
1802,32,36,36
1804,27.5,20.5,35
1806,25.5,31.5,40
1808,13,31,31.5
1810,26,29.5,35
1812,34,26.5,29
1814,26.5,29,38.5
1816,23.5,26,31.5
1818,23.5,31,32.5
1820,24.5,26.5,32.5
1822,27.5,25,35
1824,28.5,37,37.5
1826,27,28,38.5
1828,34.5,31,30.5
1830,31,35.5,38.5
1832,28,26,44
1834,31,30,35
1836,33,28,36
1838,33,31,33.5
1840,23.5,30,40
1842,27.5,26,26
1844,29.5,34,25.5
1846,27.5,35,27
1848,30.5,34.5,38.5
1850,28.5,28.5,32.5
1852,28.5,32,32.5
1854,30,36,34.5
1856,30,32.5,36.5
1858,26.5,26,34
1860,30,37,33.5
1862,28.5,33.5,35.5
1864,29.5,21,29
1866,30,24,32.5
1868,26,34.5,36.5
1870,33.5,38.5,32
1872,25.5,29,34
1874,30.5,19.5,33.5
1876,25,23.5,33.5
1878,29,31.5,37.5
1880,31,28,33.5
1882,29,29.5,39
1884,24,25,37
1886,27,36.5,27.5
1888,21.5,24,26.5
1890,18.5,33.5,33.5
1892,24,28.5,41.5
1894,33,29.5,32.5
1896,26,35,37.5
1898,25.5,21,30
1900,26,33.5,34.5
1902,24.5,29.5,35.5
1904,22.5,34,34
1906,28.5,36.5,30
1908,32.5,33,35.5
1910,32.5,28.5,27
1912,25.5,21,27.5
1914,32.5,28,39
1916,34.5,25.5,37
1918,28.5,30,30.5
1920,32.5,33,44
1922,23.5,34,29
1924,34,32.5,29
1926,27.5,33,35
1928,24.5,28,27.5
1930,29,32.5,28
1932,31,30,32
1934,29.5,25.5,30.5
1936,33,30,30.5
1938,24.5,32,41.5
1940,28.5,34.5,31.5
1942,31,27.5,30
1944,29,29,33
1946,27.5,32,38.5
1948,28,36.5,27.5
1950,32,26.5,30.5
1952,27.5,30,38
1954,26,25,35
1956,29,27,34
1958,26.5,37,34
1960,30.5,27.5,35.5
1962,33.5,27,33
1964,23.5,29.5,31.5
1966,42,27,29.5
1968,29.5,32.5,29.5
1970,24,25.5,26
1972,29.5,32,35
1974,26,26.5,30.5
1976,28,27.5,34.5
1978,32.5,27,30
1980,30,24.5,34.5
1982,25.5,34.5,29
1984,25,28.5,39.5
1986,38.5,29.5,32
1988,29.5,29.5,32.5
1990,34,30.5,29.5
1992,39.5,32.5,32
1994,30.5,24.5,29
1996,25.5,31,35
1998,38,27.5,29.5
2000,29.5,27,30
2002,28,30,29
2004,32,30,31.5
2006,28.5,24.5,36.5
2008,36,27.5,36
2010,25,30,30
2012,29,25,31
2014,33,35.5,33.5
2016,28.5,30,31.5
2018,31,34,27.5
2020,32,24,23
2022,24.5,30.5,32
2024,31,32,31
2026,31,28,27
2028,25,32.5,36
2030,25,29.5,38
2032,29,30,32
2034,28.5,30,38
2036,25,32,33.5
2038,30,31.5,28
2040,29.5,27.5,35
2042,36,32,38
2044,35.5,30.5,27
2046,21.5,30.5,35
2048,29,32,31.5
2050,31.5,27.5,30
2052,32.5,33,39
2054,35,25,28
2056,27.5,32,30.5
2058,26.5,29,26
2060,33,22,35.5
2062,29,31.5,31
2064,35.5,27.5,29.5
2066,30,32.5,34.5
2068,33.5,32.5,31.5
2070,27,27.5,31
2072,32.5,27.5,30
2074,33,32.5,26
2076,30,34.5,28.5
2078,29.5,25,29.5
2080,27,26,33
2082,32,29,32.5
2084,29.5,32.5,28.5
2086,28,34,34.5
2088,28.5,28.5,33
2090,32,33.5,37.5
2092,33,34,32.5
2094,28,29,32.5
2096,26,32,38.5
2098,32.5,38,30.5
2100,23.5,27,38.5
2102,31,30.5,30.5
2104,32,35.5,34
2106,23.5,34,30.5
2108,27,33,28
2110,21.5,36,32.5
2112,31,25,34
2114,31.5,25,33
2116,25.5,34,30.5
2118,22.5,27,27.5
2120,29.5,30,37
2122,38.5,34,38
2124,32,34.5,31
2126,38,25,27.5
2128,29.5,33.5,31
2130,38,27.5,35.5
2132,32.5,27,32.5
2134,29,33,35
2136,24,33.5,31
2138,33.5,41,34
2140,30.5,29.5,33.5
2142,34,28.5,37.5
2144,28,26,41.5
2146,25,27.5,34
2148,28,33.5,37
2150,31,27,27
2152,29.5,35.5,34.5
2154,35,41,27
2156,34.5,27,30.5
2158,39.5,33.5,34.5
2160,28.5,41.5,39.5
2162,38,37,32.5
2164,25.5,32.5,36.5
2166,29,31.5,33
2168,30,32.5,27
2170,32.5,34.5,31
2172,29.5,36,33.5
2174,32,30.5,38.5
2176,37,30.5,34.5
2178,30,31.5,37
2180,32.5,33,38.5
2182,33.5,33,26.5
2184,36,39.5,31.5
2186,28,30.5,32.5
2188,32.5,31,36
2190,33.5,32,35.5
2192,30,36.5,33
2194,22,33,29.5
2196,33.5,27,30
2198,35,33,35
2200,38.5,34,29.5
2202,33,31,35
2204,37,31,35
2206,30.5,34,35.5
2208,35,35,29.5
2210,27.5,31.5,38
2212,34.5,29,31
2214,37.5,32.5,28.5
2216,38.5,30.5,38.5
2218,35.5,40.5,34.5
2220,35.5,30,34.5
2222,40.5,36,38.5
2224,25.5,32.5,28
2226,26,33.5,37.5
2228,30.5,36.5,31.5
2230,36.5,34.5,23.5
2232,29.5,36,29.5
2234,36,33.5,39
2236,32.5,36.5,32
2238,28.5,30,36
2240,39,32,31.5
2242,28.5,36,41
2244,26.5,35.5,31.5
2246,29.5,43,35
2248,36.5,34.5,38
2250,28.5,35,36
2252,30,36,33.5
2254,26.5,35,37
2256,34,24,41
2258,35,37,32
2260,31.5,29.5,31
2262,30,36,38
2264,35,34,32
2266,27,35.5,27
2268,31,35.5,40.5
2270,37.5,42.5,40
2272,34,35,33.5
2274,30.5,32.5,35.5
2276,36,31.5,33
2278,35,37.5,32.5
2280,37.5,35.5,40
2282,30.5,33,31
2284,35.5,35,29
2286,26.5,35.5,32
2288,29.5,41.5,30.5
2290,32.5,34.5,41.5
2292,29,38.5,39.5
2294,29,30.5,38
2296,36.5,37.5,34
2298,37.5,30,34
2300,33,34,33
2302,37,39.5,36
2304,40,37,36
2306,32.5,36.5,29.5
2308,32.5,30,29.5
2310,36,34.5,33
2312,32.5,38.5,29
2314,41,35,38
2316,38.5,37,39.5
2318,32,40,38.5
2320,39,39,32
2322,34.5,33.5,35
2324,41.5,37,31
2326,27.5,28.5,27.5
2328,38.5,34,40
2330,28.5,28,32.5
2332,38.5,31,39.5
2334,32,34,45.5
2336,30,38.5,37.5
2338,40,35.5,29
2340,37,34,41
2342,32.5,41.5,34
2344,33.5,40.5,35
2346,37,40,30
2348,35.5,31.5,35
2350,28,32,44
2352,33.5,41.5,35
2354,35,33.5,34
2356,27,37,35.5
2358,30.5,34.5,31
2360,37,30.5,32
2362,34,32.5,40.5
2364,38,37,36
2366,32,35,43
2368,45,39,37
2370,39.5,37.5,29
2372,31,38.5,37
2374,37,41,36
2376,37.5,37,38.5
2378,28,45,35
2380,28,38.5,39.5
2382,34,43.5,44.5
2384,35.5,38,33.5
2386,39.5,35,44.5
2388,34,38,34.5
2390,38,32.5,37.5
2392,40.5,35.5,41.5
2394,32.5,38,44
2396,39.5,35.5,40
2398,32,38,42
2400,39,37,34
2402,42,38,46.5
2404,33.5,40.5,42
2406,41.5,34.5,41
2408,34.5,36,43
2410,42.5,41,48
2412,36,41.5,35.5
2414,41,39.5,35
2416,36.5,37.5,35
2418,42,38.5,42.5
2420,42.5,31,31
2422,41.5,31,45
2424,43.5,32.5,42.5
2426,35,40,36
2428,34.5,40.5,46
2430,42,32.5,43
2432,36.5,42,36
2434,37,34,44
2436,42,27,46
2438,31.5,39,45.5
2440,36.5,39.5,44
2442,35.5,39,44.5
2444,37.5,48,45
2446,45,45,47
2448,45,43.5,43
2450,32,39,40
2452,43,38.5,44.5
2454,39,44,32
2456,41,39,46.5
2458,37,49,39
2460,39,40.5,38
2462,40,44,44
2464,39.5,36,54.5
2466,32.5,47.5,33.5
2468,50.5,42.5,52
2470,50,46,44
2472,41.5,43,44
2474,45,45,45
2476,35.5,44.5,41.5
2478,42,51,44.5
2480,48,42,44
2482,37.5,56.5,46.5
2484,47,43,50.5
2486,40,46,40.5
2488,42,47.5,50
2490,52.5,45.5,37
2492,44,47,41.5
2494,46.5,48,44
2496,41.5,44,41
2498,43,52,40.5
2500,44,47.5,45.5
2502,39,41.5,50
2504,46,51,45.5
2506,48,45,56
2508,48,48,40.5
2510,39.5,46,48
2512,52,54,48
2514,44.5,52.5,50
2516,49.5,45,45.5
2518,46.5,46.5,47
2520,49.5,53,49.5
2522,49.5,48.5,52.5
2524,50,45.5,47.5
2526,43.5,51.5,56
2528,47,57,51
2530,47.5,49,58
2532,49,57,46
2534,62.5,51,45
2536,48,53,52.5
2538,45.5,48,47
2540,58,67.5,54
2542,54,54,51
2544,47.5,58.5,62.5
2546,51,61.5,52
2548,58,61.5,56.5
2550,58.5,59,51.5
2552,59,50.5,62
2554,51,66,57.5
2556,67,61.5,61
2558,67,58.5,53
2560,63,64,65
2562,65.5,50.5,67
2564,65.5,71.5,68.5
2566,64,60,60
2568,60.5,60,62
2570,62.5,68,62.5
2572,63.5,75.5,61.5
2574,72.5,58.5,73.5
2576,68,61.5,65.5
2578,67.5,74,70
2580,70.5,71.5,68.5
2582,75,74,74.5
2584,75,79.5,61
2586,90,75,79.5
2588,75,75,72.5
2590,79,76,76
2592,80.5,80.5,79.5
2594,86,94,74.5
2596,94.5,78.5,80.5
2598,95.5,80.5,84.5
2600,99,103.5,100
2602,87.5,100.5,79.5
2604,95,93,96.5
2606,90,89.5,101.5
2608,103,103.5,97
2610,102.5,111,105.5
2612,115,122,103
2614,97.5,112,109
2616,110.5,129,117
2618,119.5,121.5,124.5
2620,132,131.5,121.5
2622,145,134.5,118
2624,138,135,120.5
2626,143.5,162,123
2628,156,146.5,146.5
2630,155,157.5,144.5
2632,167.5,189,175
2634,185,182,159
2636,168.5,187,175.5
2638,194,209.5,173
2640,197,234,182.5
2642,223.5,228.5,186
2644,248,273,219.5
2646,258,263.5,207
2648,315.5,305.5,239.5
2650,327.5,314.5,245.5
2652,353,336.5,219.5
2654,419,357.5,253
2656,437,417.5,273
2658,475,386.5,295.5
2660,488,426,281.5
2662,568.5,497.5,302
2664,652.5,498,324.5
2666,710,564.5,339.5
2668,749.5,560.5,309
2670,826,592,339
2672,902.5,622.5,354
2674,967.5,689.5,374
2676,1063,659.5,378
2678,1110,709,381
2680,1137,720.5,353.5
2682,1272,714.5,379.5
2684,1235.5,757,369.5
2686,1243.5,759,400.5
2688,1218.5,756,393.5
2690,1224,725,380
2692,1096.5,702,369
2694,1068.5,675,373.5
2696,946,610,360.5
2698,887,615,374
2700,831.5,578.5,352
2702,746.5,542,309.5
2704,708.5,561,329
2706,634.5,481.5,316
2708,575,485,327.5
2710,494.5,465.5,276
2712,453.5,419.5,286.5
2714,424,349,257.5
2716,390,344.5,269
2718,329,318,250
2720,334.5,319,247
2722,290.5,290.5,221.5
2724,261,266,205
2726,247,248.5,205.5
2728,240,243,207
2730,223.5,254.5,173
2732,207,193.5,200
2734,178,212.5,181
2736,188,201,171
2738,173.5,169,155
2740,164,169,147.5
2742,139.5,143.5,146
2744,137,159.5,137
2746,132,135,146
2748,134,132,140.5
2750,124.5,128,134
2752,114.5,138,128.5
2754,110.5,123,133.5
2756,120.5,114,116
2758,116,107.5,123
2760,111,98.5,113
2762,95.5,96.5,108.5
2764,88.5,88,101.5
2766,86.5,98.5,95.5
2768,88.5,91.5,87.5
2770,88.5,93,90
2772,86,83,89.5
2774,76,91.5,88
2776,84.5,89,84.5
2778,81,83.5,91.5
2780,83,96.5,85.5
2782,86,83.5,78.5
2784,79.5,74,88
2786,64.5,90.5,74.5
2788,72.5,78,80.5
2790,74,75,81.5
2792,66.5,70,73.5
2794,68.5,72,61.5
2796,63.5,68,60.5
2798,61,79,70
2800,53,74,66
2802,74.5,64,65.5
2804,67.5,64.5,68
2806,61,72.5,72.5
2808,63.5,63,64.5
2810,64,58,61.5
2812,65.5,55.5,60
2814,64.5,63.5,43
2816,60,66,68
2818,57,61.5,57.5
2820,53.5,57.5,63
2822,61.5,48.5,60
2824,57,56.5,50.5
2826,57,57.5,55
2828,49.5,55,63
2830,55,55.5,55
2832,68,56,64.5
2834,51.5,66,66
2836,55,47,49.5
2838,55,52,55.5
2840,52.5,48.5,59.5
2842,60.5,58,47.5
2844,61.5,64,50.5
2846,62,48.5,53.5
2848,53,59,59.5
2850,58,38,45
2852,46.5,45.5,58
2854,58.5,52.5,47
2856,53,54,52
2858,47.5,47,47
2860,48.5,50,52
2862,63.5,48.5,54
2864,55,53.5,46
2866,51.5,54.5,57.5
2868,48,57,56
2870,43,47.5,51
2872,46.5,56,54.5
2874,51,51,48.5
2876,49.5,49.5,48
2878,54,52,45.5
2880,49,51,53
2882,56,45,51
2884,49.5,40.5,48.5
2886,52,41.5,48
2888,43,40.5,48
2890,44.5,43,51
2892,55,42.5,48.5
2894,39.5,45.5,48.5
2896,40.5,48,37
2898,43,36,50.5
2900,42.5,45.5,39.5
2902,38,44.5,47.5
2904,47,39,53.5
2906,47.5,47,47
2908,41,46,44
2910,42,54.5,48.5
2912,46.5,40.5,54.5
2914,41,45,44.5
2916,45,48.5,45.5
2918,49,52.5,48.5
2920,38.5,42.5,45
2922,50,44.5,39
2924,43,47.5,43
2926,49,51,43
2928,43,42.5,46
2930,40.5,42.5,50
2932,38.5,44,46
2934,38.5,51.5,39.5
2936,44.5,44,46.5
2938,33,40.5,47
2940,40.5,52,46.5
2942,43.5,48,44
2944,42.5,43.5,43.5
2946,39,47.5,41.5
2948,41,48.5,44.5
2950,45,51.5,44
2952,38,44.5,44.5
2954,41,37.5,39.5
2956,47.5,44.5,42
2958,39.5,47.5,50
2960,43.5,42,43.5
2962,36.5,34,49
2964,52.5,53,43.5
2966,45,39.5,38.5
2968,35.5,46.5,40
2970,42,45.5,47.5
2972,35.5,43.5,41.5
2974,41,45.5,43.5
2976,50.5,44,46
2978,42,36.5,42.5
2980,40.5,40,42.5
2982,43.5,45,48
2984,41.5,50,42
2986,46.5,43,44
2988,42,51.5,42
2990,50,36,39.5
2992,35.5,39,40
2994,41.5,36.5,44.5
2996,46,43.5,44.5
2998,42.5,35.5,44
3000,55,52,40
