Raman shift / cm-1,0 min,10 min,20 min,30 min,40 min,50 min
1000,22,13.5,23.5,20.5,20.5,24.5
1002,18,14,18.5,20,25,23.5
1004,20.5,24,24.5,21.5,18.5,23
1006,18,25.5,18,17,24,23
1008,17.5,16.5,15,18.5,23,21
1010,18.5,19.5,15.5,18.5,20,21
1012,20.5,18.5,20,20,25.5,16.5
1014,19,18,17,28,18,24.5
1016,17.5,20,17,24.5,19.5,21
1018,18.5,16,17.5,20.5,26.5,23
1020,16.5,19,21,19,25.5,21.5
1022,21.5,18.5,21,25,16,19.5
1024,14,20,16,23,24,22.5
1026,12,18,21,21.5,19.5,16
1028,16,24.5,24.5,17,18,22.5
1030,21.5,19.5,21,19,18.5,20.5
1032,19,16.5,20.5,23,26.5,20
1034,20,16.5,20.5,23.5,29.5,25
1036,15.5,17.5,19,18.5,19,30.5
1038,22.5,19.5,22,19.5,20,27
1040,19.5,15.5,23.5,22,23.5,22.5
1042,20.5,18,23,21.5,24,20
1044,18,21,22,21,22.5,27.5
1046,22,17,22,15,27,28
1048,24.5,21,20,15.5,18.5,23
1050,17.5,22,21,22,18.5,27
1052,24,23.5,17.5,21.5,28,18
1054,18,22,23.5,18.5,26.5,18
1056,20.5,18.5,24.5,29,21.5,23.5
1058,22.5,17,27.5,17.5,26,27.5
1060,17.5,22.5,17,17.5,18,24
1062,22,21.5,24,21.5,26.5,27.5
1064,14.5,21.5,21,28,27,31.5
1066,20,19,22,18,25,24
1068,20.5,22,15.5,20,25,24.5
1070,20.5,18.5,23,25,18,27
1072,21,21.5,18,25.5,21.5,26.5
1074,18,20.5,19,26,28.5,28.5
1076,22.5,24.5,28,27,30,28
1078,17.5,16.5,19,25.5,23,22.5
1080,17.5,16,24,24,19,20
1082,18.5,18,25,23,21,18
1084,15,18,24,25,27,23.5
1086,20.5,24.5,21.5,23,21.5,34
1088,20.5,18.5,26,25,27,24
1090,20,20,22.5,18.5,27,31.5
1092,20,17,28.5,23,31.5,26
1094,15,22,19,24,18.5,24.5
1096,14.5,18.5,25.5,23.5,22.5,21
1098,19.5,22,25,28.5,28.5,21
1100,23.5,16.5,25,29,23.5,25
1102,21,21.5,31,24.5,24,29.5
1104,23.5,18.5,26.5,24,29,26
1106,19,19.5,30.5,24.5,24.5,24
1108,16,18.5,21.5,27.5,18.5,35
1110,21,25.5,23.5,28.5,30.5,29
1112,18.5,25,17,23.5,31.5,20.5
1114,16.5,25,20,27.5,28,29.5
1116,20.5,22,23,22,35,26
1118,15.5,22.5,20,23,31,32.5
1120,19,25.5,19.5,21,25.5,34
1122,20,19,22.5,20.5,28,25
1124,15.5,22.5,17,18,29.5,27
1126,18,19,24.5,27.5,33.5,34.5
1128,19,22,19.5,21,29.5,28.5
1130,27,22,25.5,20,31,28
1132,23,20,17,27,26,36.5
1134,22,20.5,21.5,21.5,31.5,33
1136,28.5,16.5,21,20.5,32.5,29
1138,21,18.5,21.5,31,26,30
1140,20,23.5,16.5,23,28,32.5
1142,17,23.5,24,22.5,24,36
1144,20.5,23.5,22.5,26,25.5,28.5
1146,19,21,24,21.5,27,30
1148,23,20.5,20.5,23,22.5,36
1150,20.5,28.5,19,28.5,26.5,33
1152,17,21,27.5,23,34.5,36
1154,23.5,24.5,25.5,31,25.5,41
1156,20.5,19.5,24,27,27,41
1158,21.5,24,26,30.5,31.5,40.5
1160,17,28.5,21.5,24.5,27,31
1162,22,20,24,17.5,29,38
1164,21,21,23.5,25,30,38.5
1166,22,24,25.5,27.5,25.5,34.5
1168,19.5,21,27.5,23.5,33.5,35
1170,22,26.5,27.5,29,34,34
1172,20.5,20.5,20.5,30,30.5,42.5
1174,22,22,28,16.5,35.5,41
1176,24,25,28.5,32,25.5,37.5
1178,24.5,23.5,30.5,33.5,36.5,33.5
1180,21,26.5,22.5,29.5,35.5,36
1182,17.5,29,23.5,29.5,31.5,45.5
1184,19,23,24,29,39,37
1186,18.5,30,22.5,29.5,30.5,45
1188,16,21,21,33,30.5,34.5
1190,25,25,26.5,31,35,42
1192,18,25.5,31.5,27,34,38
1194,19.5,17,29.5,30.5,39.5,46
1196,28.5,24.5,28,30,38.5,43.5
1198,24,28,28.5,30,29.5,43.5
1200,17,31,22,29.5,48.5,43
1202,23.5,27.5,31,33.5,38,45.5
1204,21.5,26,28.5,29,42,38.5
1206,22,23.5,26,37.5,41,47.5
1208,20.5,21,23.5,25,46,47.5
1210,24,21.5,39.5,29,34,45
1212,19.5,23,26,37,49,43
1214,24,23,28,35.5,41,49.5
1216,23,22,31.5,34,37.5,50.5
1218,26.5,18,28.5,31,39.5,53.5
1220,28,27,27,43,36,43.5
1222,20.5,22,27,31,43,51
1224,16.5,19,22.5,28,38.5,50
1226,22,30.5,30,30.5,37.5,54.5
1228,25,23.5,36,30,45.5,58
1230,21.5,24.5,35,43,42.5,60
1232,28,28.5,28.5,33.5,47.5,56
1234,23,31,29,32.5,39.5,53.5
1236,27,29,33,49.5,52,60
1238,26,25,33.5,36,41.5,59.5
1240,27,33.5,27,35,50.5,72.5
1242,24,28.5,32.5,37,61,64.5
1244,19,28.5,34.5,44,53.5,62
1246,19,27.5,29,35,57.5,65.5
1248,21.5,29.5,30.5,39.5,55,60.5
1250,23,30.5,37.5,37,56,61.5
1252,20.5,26.5,36.5,42.5,58.5,72.5
1254,21,27.5,33.5,43.5,51,66.5
1256,26.5,25,38.5,61,67,78
1258,20.5,33,29,44,50,83.5
1260,23,29,38,42,59.5,94
1262,29.5,36,33,61.5,61,81
1264,22.5,31.5,40.5,44,69,87
1266,25.5,28.5,43.5,45.5,69.5,88
1268,23,30.5,34.5,49,72,85
1270,26.5,33,35,61.5,67.5,82.5
1272,23,38,44.5,53.5,72.5,86
1274,21.5,27.5,46.5,51.5,79.5,101
1276,31,40,52.5,72.5,72,98.5
1278,24,31.5,46,56,74,100
1280,28.5,30,49,58.5,93,99.5
1282,20,43,57.5,60,79,119
1284,32,26.5,53.5,71.5,87,116
1286,23.5,33,58.5,69,99.5,125
1288,30,38,58,67,113,141.5
1290,31,38.5,59,67,120.5,125
1292,25,41.5,62,78,123,141
1294,29.5,37.5,70,88.5,116,174.5
1296,30,39.5,62.5,87.5,123.5,170
1298,31,39.5,67,96,142.5,199
1300,28.5,47,57.5,82.5,144.5,178.5
1302,35.5,45,57.5,111,146.5,217
1304,31,49,75,112.5,149,220
1306,33.5,44.5,81,121,172.5,231.5
1308,38,45,88.5,133.5,189.5,246.5
1310,39,53.5,97.5,145,208.5,265
1312,38.5,65.5,100,169.5,213.5,298.5
1314,37.5,63,98.5,169.5,223.5,314
1316,42.5,70.5,120,179.5,248,334.5
1318,46.5,82,109.5,197,282,392
1320,51,81,148,214,320.5,384
1322,50,95.5,159,241,317.5,425
1324,60,110,180,251,377.5,464.5
1326,60,115.5,197,249,366.5,476.5
1328,73.5,134.5,213.5,296.5,410.5,529
1330,62,150.5,231.5,331,449,556.5
1332,74,166,222,349,467.5,608.5
1334,97,177,256.5,392.5,502,665
1336,100.5,181.5,284.5,395,508.5,670
1338,101,207,333,444,576,723
1340,107,203.5,354.5,438,615,727.5
1342,127,240,353,496.5,643,826.5
1344,144.5,260.5,386,559,667,775.5
1346,130,280.5,396,562.5,664.5,810
1348,139,265,407,540,701,835
1350,139.5,272.5,392,546.5,658,805
1352,137,251.5,408.5,518,684.5,800
1354,135.5,267,402.5,534.5,683,863.5
1356,124.5,240.5,390,503.5,653.5,772.5
1358,115.5,244,355,508,603.5,781
1360,114,225,338,481,618.5,766.5
1362,112.5,205,318.5,442,575.5,710.5
1364,92.5,185.5,296,414,521,693
1366,89.5,162,289,376.5,511.5,626.5
1368,80,173.5,260,358.5,482,585
1370,73,141,222.5,324,438,561.5
1372,55,121,217.5,300.5,403,542.5
1374,52.5,127,194,276.5,366,491
1376,46,122.5,160.5,253,370,475
1378,54.5,91,156,234,334.5,434
1380,43.5,74.5,141,234.5,303,396.5
1382,50.5,85,140,189,306,357.5
1384,46,79.5,120.5,207.5,261,356
1386,37,72,108,178.5,250.5,334.5
1388,46.5,69,99,148.5,239,300.5
1390,36,62.5,109,155.5,187,251
1392,30.5,52.5,94,125.5,204.5,256.5
1394,35.5,63,72,117,170.5,244
1396,38.5,41,67.5,103.5,176,227.5
1398,36,49.5,69,111.5,142,224.5
1400,38.5,42.5,74.5,110,135,210
1402,35.5,39,63.5,95,152.5,197.5
1404,26,41.5,65,89.5,129.5,177.5
1406,27.5,43.5,61,101,136,173.5
1408,32,39,58.5,83,122,156.5
1410,31,42.5,59.5,83,111.5,128
1412,32,31,58.5,83.5,119,146
1414,26.5,44,63,74.5,103.5,150.5
1416,28,41,54.5,72.5,92,126
1418,29.5,44.5,51,72,90.5,116.5
1420,23.5,37.5,56.5,63,90,131
1422,30.5,46.5,60,71,87,112
1424,27,43,44.5,64.5,85.5,123.5
1426,30.5,32,48.5,64.5,77.5,117.5
1428,35,41.5,43,58,71,111
1430,29.5,31.5,44.5,62.5,78,93.5
1432,27.5,32.5,44.5,46.5,68.5,108
1434,24.5,45,48.5,61.5,78,80
1436,22.5,34.5,45.5,48,76.5,101
1438,28.5,44,43,49,74,83.5
1440,20,44.5,41.5,54.5,55,89.5
1442,31.5,34,58.5,62,67,91.5
1444,23,44,35.5,53,69.5,85
1446,31,29,46,58.5,72.5,87
1448,27.5,41,39.5,55,48,91
1450,21.5,33.5,43.5,48.5,72,84
1452,29.5,37.5,39.5,47,66.5,71.5
1454,31,36.5,39.5,56,60,79
1456,29,35,45.5,50,63.5,72.5
1458,28.5,35.5,51.5,46.5,70.5,71.5
1460,27,36,41.5,51.5,64,72.5
1462,29,32.5,38,44,56.5,74
1464,31.5,36,49,42.5,66.5,77.5
1466,36.5,42,51.5,47,60.5,85.5
1468,29.5,33,40,54,61.5,71
1470,28.5,37,45.5,48,58.5,68
1472,30,35,36.5,48.5,60.5,77.5
1474,32.5,35.5,44.5,47.5,58,70
1476,34.5,30,43,51.5,63.5,68
1478,34.5,37.5,41,45.5,57.5,71.5
1480,29.5,33,33,48.5,54,63
1482,24.5,39.5,33.5,48,56.5,80.5
1484,37.5,34.5,41.5,47.5,61,88.5
1486,29.5,44.5,38,42,61,79
1488,33,40,43,61,70.5,75
1490,29,36.5,54,55.5,61.5,72
1492,38,46,42.5,54.5,59.5,73.5
1494,27,40,40.5,55.5,60,79.5
1496,47,42.5,50.5,48.5,62.5,82.5
1498,30.5,37,47.5,64,62,71
1500,28,35,43.5,57.5,65,74.5
1502,32,39,46.5,69.5,65.5,78.5
1504,31,40.5,52,58.5,76,77.5
1506,51,43,44,69,64.5,82.5
1508,38.5,53,48,63,72.5,87
1510,37,46.5,57,59.5,71.5,101.5
1512,32.5,42.5,51,66.5,76,90
1514,42,49.5,56.5,61,76.5,89.5
1516,35,48,58,63.5,75,88
1518,37.5,48.5,53.5,60.5,81.5,89
1520,41.5,55,55.5,70,79.5,98.5
1522,45.5,54.5,63,76,78.5,114
1524,42.5,51.5,64.5,77,85,113.5
1526,44.5,55,58,74,88,121.5
1528,57.5,56.5,76.5,92.5,95,112
1530,52,58,62.5,80.5,103.5,135
1532,62.5,68,74,81.5,104,121
1534,52,65,73,85,107.5,151.5
1536,54,83.5,81.5,94.5,130,142
1538,60,69,98.5,109.5,135.5,145.5
1540,60,70,88,105.5,126.5,143
1542,68,86.5,99,115.5,154,168.5
1544,70,88.5,114.5,131.5,154.5,202.5
1546,69.5,89.5,127,146,176.5,201
1548,86.5,93.5,116,144.5,183.5,226
1550,101.5,110,130,182,215.5,241.5
1552,97,132,156,196.5,235.5,265
1554,105,148.5,164,204.5,236,305.5
1556,126,151,197,222,267,313.5
1558,135.5,187,226.5,275,296.5,356
1560,159.5,209.5,251,279,356.5,402
1562,195.5,233.5,282.5,343,413.5,468.5
1564,234,289.5,343,392.5,445,493.5
1566,274.5,314,406,441,515,540.5
1568,289.5,380.5,454.5,481.5,555.5,587
1570,381,427.5,513.5,549.5,578,652
1572,456,535.5,623,614,674,712.5
1574,558.5,574.5,664.5,669,719.5,734.5
1576,613,680,716,756.5,814.5,807.5
1578,737.5,753,790.5,783.5,800.5,830
1580,782,797,815,826,831,858.5
1582,793.5,841,854.5,801,876,877
1584,791.5,784,832.5,825.5,873.5,879.5
1586,687.5,731,768,790,799,850.5
1588,608,726.5,724,725.5,772.5,782.5
1590,579,609.5,669,653.5,736,752.5
1592,466,514,604,618.5,640,653
1594,387,466,541,572.5,585,671
1596,308,392.5,431,500,539.5,610
1598,257.5,327,374,473.5,504,523
1600,234.5,277,314,403.5,419.5,486.5
1602,182.5,247.5,304.5,366.5,413,439.5
1604,155.5,204.5,256,313.5,331,402.5
1606,139,194.5,240.5,277,298,351.5
1608,120.5,153.5,192.5,220.5,286,328.5
1610,104,144,148,197,258,310
1612,94.5,133.5,139,205.5,213,244.5
1614,91,117,150,157,196.5,235.5
1616,79.5,113.5,121,154.5,173.5,216
1618,66.5,86,119.5,142,166,229.5
1620,65,73.5,95.5,124,144.5,184.5
1622,58,84.5,105.5,127.5,126,161.5
1624,64,75,87.5,128.5,135,146.5
1626,65,73.5,83,108,115,156.5
1628,54.5,75,78,88.5,98.5,134
1630,56,74,79,93.5,101.5,131
1632,57.5,64,73.5,93.5,95.5,116.5
1634,61,60.5,72.5,88,96.5,116
1636,52,50,68,74.5,104,92
1638,50.5,52.5,66.5,85.5,93,108
1640,48,50.5,60.5,72.5,77,98
1642,46,52.5,61.5,65,85.5,99
1644,41.5,49.5,61.5,74,63,92.5
1646,50.5,49,55,69.5,74,90
1648,44,53,52.5,69.5,66,77.5
1650,37,40.5,53,59.5,71.5,72.5
1652,31.5,37,51.5,55.5,55,83
1654,37,49.5,47,56,70.5,79.5
1656,40.5,48,48.5,58,62,71
1658,45,49,47.5,48,62,73.5
1660,41.5,40,38,42,61,76
1662,42,39.5,45.5,55,53.5,51.5
1664,31,38,51,49,54,59
1666,46.5,42,44,53.5,64.5,65.5
1668,39,32,39,50.5,53,62.5
1670,37.5,44.5,27.5,42.5,50,61
1672,33.5,32.5,44,50,58,56.5
1674,38,43,44.5,45,40,58
1676,28,37,43,42.5,50,47.5
1678,30.5,34,30,47.5,43.5,60.5
1680,39.5,43,48,42,44.5,52
1682,26.5,38.5,41,46,55,57.5
1684,38,34.5,35,37.5,51,40
1686,36,37.5,32.5,36.5,44,50.5
1688,35.5,42,38,48,42,42.5
1690,32,40,41.5,48,47,49.5
1692,32.5,35.5,34.5,38,50.5,56
1694,23.5,30.5,32.5,36,49.5,43.5
1696,30.5,35,40.5,36,54,56.5
1698,30,29.5,37.5,32,42,49
1700,30.5,29,33,44,44.5,42.5
1702,23.5,39,33,41,49,48
1704,36.5,35.5,34.5,36.5,37.5,47.5
1706,33,31.5,50,42.5,35.5,38.5
1708,30,28,35,36,53,38
1710,29.5,32,28.5,38,38,44.5
1712,28,37,28,28,44,37.5
1714,29.5,31.5,31.5,35,36,47
1716,34.5,34.5,32.5,35,30,40.5
1718,31,26,29,38,40.5,46.5
1720,33,29.5,36.5,37.5,34,49
1722,32,33.5,26,33,46.5,34.5
1724,35,31.5,40,33,34.5,46
1726,25.5,27.5,24.5,27.5,34.5,42
1728,25.5,33,34,44.5,37,36
1730,25.5,25.5,33,36,34,37.5
1732,30.5,31,34.5,37.5,32,41
1734,29,24,30.5,30,35.5,31.5
1736,32.5,29,26,30.5,31.5,39
1738,32.5,32,37,34.5,32,34
1740,27.5,36.5,32.5,38.5,37.5,33
1742,34.5,34.5,36,34,43,35.5
1744,29,30.5,28,32,30.5,36.5
1746,28,26,31.5,31,34.5,38.5
1748,30,26.5,22,36.5,37,38
1750,28,26.5,25.5,20.5,40,35
1752,28,35,31.5,25.5,34.5,43.5
1754,26.5,38,27,33,30,35
1756,31,26.5,29.5,31,42,38
1758,26,28.5,28.5,48,31,38.5
1760,26,23.5,28,27.5,32,39.5
1762,34,30,26.5,32.5,36,31.5
1764,27.5,28.5,28,27.5,36.5,30.5
1766,25.5,30,29,30.5,40.5,33
1768,26.5,32.5,33.5,31.5,39.5,34
1770,32.5,34.5,39,28.5,35,38.5
1772,24,36.5,28.5,31,44.5,42
1774,30,31.5,27,31.5,34,36
1776,27,35,32.5,29.5,32,36
1778,23,33,32.5,25,32,40
1780,30,37.5,35,36,35.5,43
1782,26.5,28,32,39,33,43.5
1784,31,32,32,32.5,31,39.5
1786,24,29.5,29,26,34,29
1788,27.5,26.5,32.5,36,29,33.5
1790,28.5,30.5,33.5,34,30,41.5
1792,26.5,32.5,37.5,35,34.5,40.5
1794,22,26,32,38,31,28.5
1796,29,37.5,33,28,33,38
1798,30.5,24.5,35.5,29,38,33
1800,27,21,28,35,30,40
1802,29.5,22,27,33.5,33,33
1804,28.5,25.5,33,32.5,29,37
1806,24.5,25.5,28.5,27.5,31.5,36.5
1808,30.5,34.5,27.5,29.5,33,32.5
1810,24.5,25,33.5,29.5,37.5,36.5
1812,30,31.5,34,28,30.5,29
1814,25,26.5,29,33,32,34
1816,31,27.5,30.5,27.5,32.5,34
1818,32,28.5,31.5,30,24,32.5
1820,34.5,30.5,32,28,32.5,35.5
1822,35.5,20,26,28.5,32,40.5
1824,33,29.5,33,29,30.5,30
1826,26,22,34,44.5,35.5,28
1828,27,29.5,24,29.5,32,29
1830,27.5,25.5,31,31,29.5,28.5
1832,35.5,39.5,31.5,25,32,34.5
1834,24,33,36.5,31,33.5,34.5
1836,27,30.5,35,33,29.5,29
1838,32.5,28,28.5,26.5,32.5,32.5
1840,24,21.5,28,27.5,30,35
1842,29,30.5,28.5,19.5,29.5,36.5
1844,25.5,27.5,27,33,36,31
1846,27,28.5,27.5,22,32.5,35.5
1848,26,29,30,31.5,30,32
1850,27.5,36.5,26.5,24,30.5,33.5
1852,27,28,22.5,27.5,30.5,35
1854,28.5,27.5,30.5,28,41.5,31.5
1856,32.5,31,34,30,29.5,27.5
1858,26,30,27.5,30,37,32
1860,30.5,20.5,29,36.5,33.5,26.5
1862,35.5,24,21,32,25,32
1864,26.5,29,29,26.5,34.5,28
1866,33,27.5,28,31,34.5,34
1868,18.5,22.5,31,29,29,33.5
1870,27.5,33.5,29,32,29.5,32.5
1872,28.5,29.5,24,28.5,25.5,31
1874,32,31,31.5,29.5,35,40
1876,30,23,26,28,27,32
1878,28,28,31.5,35,36,32.5
1880,31.5,31,30,29.5,34,35
1882,28,30.5,35,37,33.5,34
1884,31.5,26.5,33,35,35.5,30.5
1886,32.5,28,32,35,25,34.5
1888,24.5,32.5,20.5,28,25.5,26
1890,27,23,26.5,27,27,32.5
1892,26.5,36,27,26,32.5,33.5
1894,24,30.5,33,36,30.5,34.5
1896,28.5,31,33,29,30,31
1898,29.5,39.5,38.5,29.5,31.5,30.5
1900,26.5,28,28,28,33,37
1902,22.5,26,31,32.5,29.5,23
1904,33,27,32.5,25,29.5,32
1906,30.5,30,33.5,19,33,32.5
1908,32,23,28.5,26,23.5,28.5
1910,29,37.5,29.5,26.5,32,33.5
1912,23.5,31.5,29,32,29,31.5
1914,29.5,33.5,25.5,33,26.5,37
1916,32,31,37,27.5,30.5,32
1918,30.5,30,35.5,36,31.5,27.5
1920,28.5,31.5,27,33,36.5,29.5
1922,27,25,31,33,31.5,37.5
1924,33,30,31,31.5,28.5,32.5
1926,34.5,30,24,33,38.5,40
1928,31,29,26,30.5,31,31
1930,25.5,31.5,34.5,30,30,34.5
1932,24,27,32.5,29.5,39.5,32.5
1934,30.5,36.5,30.5,30,30,33.5
1936,30,38.5,26,28.5,31,27
1938,28.5,24.5,31.5,37,34,28
1940,33,23.5,28,25.5,30,28.5
1942,27,28.5,28,24,35.5,31
1944,24,32,24,26.5,28,34
1946,29,31.5,39,31,40.5,29.5
1948,33,25.5,30.5,31,29.5,28
1950,32,28.5,25.5,28,30,39
1952,33.5,27,24.5,29.5,28,32
1954,25.5,32,30.5,34.5,34,34
1956,33,33,31,26,26.5,33
1958,26,37,33,23.5,35,29.5
1960,29.5,26.5,33,36.5,38,33.5
1962,26,25.5,22,25,25.5,31.5
1964,23,23.5,29.5,28,30,31
1966,34,28,34.5,29.5,34.5,28.5
1968,29,24,30.5,28.5,36,31
1970,33,30.5,29,28.5,32,29.5
1972,23.5,29,27,37.5,28,37
1974,29.5,27,28,26,33,28.5
1976,33.5,23.5,26.5,28.5,32.5,32.5
1978,26.5,33,29.5,35,27.5,31
1980,25.5,29.5,27,33,35.5,31.5
1982,33.5,26,25.5,36.5,28.5,25.5
1984,29.5,33.5,33,22.5,30.5,34.5
1986,31,26.5,32.5,32.5,29,29.5
1988,24.5,31,33,43,32,32
1990,28,30.5,28,31.5,32,24
1992,39.5,32.5,30.5,31.5,27.5,31
1994,33.5,29,33.5,31.5,33,23.5
1996,28.5,31,26,30,27.5,26.5
1998,29,32,39,27,27,32.5
2000,32,32.5,27.5,27.5,29,29.5
2002,33.5,34,31.5,25.5,33,32
2004,34.5,35.5,25.5,28,31.5,32
2006,32,33.5,26.5,29,25.5,32.5
2008,33,31,26.5,23.5,38.5,29.5
2010,29,36.5,23,31,24.5,34
2012,29.5,41,32,22.5,36,33
2014,31,35.5,29.5,28,44.5,37
2016,29.5,31,28,30,27.5,33
2018,29.5,25.5,29,29,29.5,31
2020,32.5,28,26,24.5,40,34
2022,29.5,34.5,37.5,32,37.5,30.5
2024,30,35.5,28.5,29.5,28,33.5
2026,31,32,27.5,31,32,28.5
2028,28.5,29,34.5,37,33.5,27
2030,32.5,32.5,26,23,30.5,31.5
2032,35.5,29,28,41.5,29.5,37
2034,26,24.5,30.5,25.5,25.5,32.5
2036,26,29.5,29,28,29,30.5
2038,28,29.5,29,35,34.5,35
2040,24.5,31.5,26,30.5,32,29.5
2042,21.5,29,28.5,32.5,29,32
2044,30.5,24,35,26,30.5,31
2046,21,20.5,27.5,33,29.5,33.5
2048,34.5,30,36.5,26.5,26.5,25
2050,26.5,34,33,28.5,30,38.5
2052,33.5,34.5,28,29.5,22.5,34.5
2054,33,25,25,34.5,33.5,28
2056,28.5,28,33.5,29,36.5,34.5
2058,28.5,32,38,32,22.5,31.5
2060,27,28.5,22.5,27,39,40
2062,28,30,29,34,35,34.5
2064,31,34.5,37.5,28.5,34.5,33.5
2066,28.5,29,29.5,33.5,31,32.5
2068,28.5,28,28,33.5,33,29
2070,31.5,29,31,26.5,33.5,32.5
2072,39,33,27.5,34,25,29
2074,32,28,40,30.5,30.5,30
2076,24,32,31,27.5,32.5,31
2078,26.5,25,36,27.5,33.5,30
2080,24,27,29.5,36,33.5,41
2082,27,29.5,28.5,34.5,33,36
2084,27.5,27.5,24,25.5,36,31.5
2086,28.5,31,38.5,29,29.5,38.5
2088,40,29,31.5,29,30.5,32
2090,27,36,33.5,31.5,30.5,38.5
2092,33.5,29,30.5,36.5,30,30
2094,33.5,31,29.5,24,34,30
2096,32.5,31.5,29,32.5,34.5,34
2098,30.5,24,32,36,35,29.5
2100,28,24.5,33,36,27.5,34
2102,36.5,27,34,33.5,25,34
2104,27.5,27.5,37.5,43,37.5,37
2106,33.5,27,26.5,29,26.5,28
2108,33,30.5,29,33,30.5,24
2110,26.5,26.5,28,31,28.5,35
2112,29.5,33,28.5,28.5,42,29.5
2114,34,34.5,30,32.5,35,29
2116,37.5,30.5,34,28,36.5,29.5
2118,32.5,26.5,37,31,36.5,42
2120,28.5,23.5,30,31.5,30,33.5
2122,31.5,29,34,35,33,34
2124,27.5,24,31.5,30.5,35.5,26
2126,38.5,33.5,35.5,34,33.5,31
2128,30,26.5,28.5,34.5,40.5,32
2130,39.5,31,33,33.5,30.5,23.5
2132,33,32.5,35.5,33.5,21.5,31.5
2134,33.5,26,28.5,27.5,35,38
2136,35.5,33,34.5,33,32,36
2138,36,37.5,37.5,31,36.5,32
2140,32.5,33.5,35,35.5,31,25
2142,30,40,35,27.5,37,25.5
2144,32,31,33,31,29.5,31.5
2146,32,35,26,27.5,33.5,36
2148,24.5,26.5,29.5,30.5,33,33.5
2150,27.5,37,35,32,27,27.5
2152,29,23,31.5,24.5,35.5,30
2154,32,28.5,25,41.5,38.5,30.5
2156,35.5,29,29,33,28.5,33
2158,28,27,31.5,31,31,28
2160,33.5,31.5,35,29,41,35
2162,29.5,31,37.5,31,33.5,30.5
2164,26,32.5,32.5,29.5,32,29.5
2166,31.5,31,31,33,25,31
2168,40,32,35,30,30.5,35.5
2170,38.5,39,22,36,35.5,40
2172,30,29,33,31.5,42,28
2174,32.5,27,31.5,36,33.5,32
2176,32.5,29,33,32,34.5,38
2178,36,32,38,35.5,31,30
2180,33,26,37,32,35,30.5
2182,33.5,34,31.5,35,35,37
2184,31.5,34.5,41,38,35.5,33
2186,34,31,33,27,21.5,29.5
2188,37,30,35,33.5,27,26
2190,28,36.5,30,39.5,38,31
2192,30.5,31,33,27,27.5,32
2194,30,25,41.5,38,32,34.5
2196,31.5,41,30.5,36,35.5,36
2198,27,38.5,31,34,27,27.5
2200,24,32.5,34.5,37.5,28,33
2202,29,28.5,31.5,31.5,37,30.5
2204,29.5,27,31,35.5,38,33.5
2206,37,30,28.5,30.5,28.5,32.5
2208,27,30.5,36.5,37.5,32.5,38
2210,38.5,37.5,40.5,26,29.5,37.5
2212,35,36.5,38.5,22.5,29.5,25.5
2214,27.5,38.5,32,27.5,31.5,27
2216,39,41.5,33.5,37,32.5,29
2218,28,40,42,31.5,34,45.5
2220,36,32.5,39,29,33,31
2222,38.5,34,26.5,31.5,35.5,26.5
2224,28,31,29.5,36.5,38.5,35.5
2226,43.5,34,38.5,38,33,28.5
2228,35.5,34,38,38.5,28.5,34.5
2230,26,31,30.5,31.5,30,34.5
2232,33,36,43,29.5,30,38
2234,30.5,37.5,31,34,38,30
2236,26.5,38.5,37,37,42.5,34.5
2238,34,30,28,31.5,29,34
2240,32,32.5,30.5,34.5,37.5,36.5
2242,24,32.5,37,30,32.5,31
2244,38.5,36,31.5,37.5,38.5,28.5
2246,28,26.5,31,39,40,33.5
2248,31,38.5,28.5,35,32.5,40.5
2250,33,29,34.5,25.5,31,38
2252,33,38.5,31,38.5,36,43
2254,35,36,33.5,36,36.5,33
2256,32.5,33,34.5,37,36.5,31
2258,29,32.5,38,37.5,35,40
2260,32,32,40,28.5,32.5,39
2262,26,34.5,35.5,30,31,39.5
2264,37,34,35,36,34,31
2266,29,42,36,36,34.5,29.5
2268,41,38,38,34,39,33
2270,33.5,36,34,36,36.5,31
2272,35,34,34,36.5,29.5,33.5
2274,34,31,30.5,39.5,40.5,40.5
2276,33.5,31,36,32.5,41.5,35.5
2278,27,35,30.5,26,34,33
2280,35,37.5,36.5,33,35.5,33.5
2282,35,25,35,38.5,34,38
2284,30.5,31.5,25.5,36,34,32.5
2286,30,33,32.5,27.5,39,33
2288,32,33,34,33,37,36.5
2290,33,34,34,34,35,36
2292,27,37,28,34.5,35.5,38
2294,32.5,37,31,32.5,39.5,32.5
2296,31.5,38.5,43,35.5,38,42
2298,26.5,32,43.5,36.5,32.5,40.5
2300,28.5,34,37,40.5,35.5,32
2302,23.5,32.5,37,42,38,29.5
2304,28,31.5,35,32,30.5,34.5
2306,38,35.5,31,38,42,37
2308,33,37,35.5,39,31.5,32
2310,27.5,35,39,31.5,40.5,36
2312,37.5,38.5,30,31.5,33,34
2314,31.5,31.5,36.5,31.5,33.5,38
2316,35,25,37,29,31.5,36.5
2318,32.5,34,31,44,33.5,39
2320,29.5,40,30,36.5,34.5,38.5
2322,33.5,28,37,35.5,32,32
2324,28.5,36.5,34.5,34,36.5,38.5
2326,29.5,36.5,32,31.5,36,40.5
2328,29.5,31,37.5,42,41,35.5
2330,39.5,30,38.5,38.5,46,37
2332,37,34,34.5,40,38.5,32.5
2334,31,41.5,36.5,34,37.5,38
2336,26,33,40.5,31.5,42,33
2338,34,40.5,44,33.5,36,38.5
2340,33.5,38,38.5,42.5,34.5,35.5
2342,32,36,35.5,41.5,27.5,32
2344,34.5,40,40.5,29.5,34.5,35.5
2346,43.5,48.5,41.5,33.5,38.5,51.5
2348,39.5,37,31,32.5,32.5,39.5
2350,39,33.5,35,43.5,33,37
2352,37.5,36,44.5,31,35,38.5
2354,31,34,38.5,43.5,39.5,32.5
2356,37,30.5,39,37,29,44
2358,41,35,36.5,38,34,37
2360,31.5,28.5,41,33,39.5,42.5
2362,46.5,34,42,36,40,43.5
2364,36,30,33,46,46,32.5
2366,38.5,33.5,37,32.5,42.5,40.5
2368,36.5,36,40,44,37,40
2370,35.5,33,41.5,39.5,36,35
2372,37,30.5,36,36,37,38
2374,39.5,31,39,45.5,37,46
2376,40.5,37,46.5,30,36,31.5
2378,35.5,35.5,33,36,36.5,40.5
2380,34,37.5,42.5,44.5,38,37.5
2382,38,41,35.5,41.5,32,37
2384,30.5,34.5,45,35,33,34.5
2386,29.5,35,40,41,41,40.5
2388,32.5,29,41,40,47,32.5
2390,38,37.5,39,40,35,36.5
2392,31,32.5,39.5,36.5,36,39.5
2394,35.5,33.5,42,43.5,42.5,45.5
2396,39,44.5,33.5,42,41,36.5
2398,33.5,40.5,39.5,36.5,45.5,37.5
2400,32,40.5,34,40.5,39,43.5
2402,30.5,37.5,27,38,36.5,41
2404,42,44.5,37.5,47,44,31
2406,35,35.5,37.5,41,41.5,42
2408,41,44.5,34.5,37,38,39
2410,38,40,42.5,50.5,35.5,37
2412,35,46,45,35.5,41.5,37
2414,35,32.5,38,39,35.5,44.5
2416,34.5,40,37.5,51,36,36.5
2418,35.5,38.5,39,33.5,41,38
2420,25.5,45.5,39.5,35,40.5,32.5
2422,36.5,39.5,35.5,38,40.5,37
2424,45,37,44,47.5,42.5,36.5
2426,31.5,36,42.5,36.5,43.5,38.5
2428,43.5,42.5,45.5,33,39,39
2430,32.5,40,43,37,48,29
2432,41,41,41,42,33.5,36.5
2434,34,49,38.5,40.5,43,37.5
2436,49.5,34,35,37.5,36,46.5
2438,36.5,38,41.5,47,41,44
2440,38.5,32.5,41,46,40,39
2442,39.5,41,44,51,37,38.5
2444,43.5,38,36.5,41.5,40.5,42.5
2446,35.5,47,43.5,55,40,37
2448,41.5,45,35.5,44,46.5,42
2450,48,31.5,41.5,40.5,49.5,41.5
2452,37,38.5,45.5,42.5,44,50
2454,39.5,38.5,41.5,41.5,47,46
2456,39.5,38.5,43.5,49,48,37
2458,38,50,41.5,37.5,33,47.5
2460,37.5,41,41.5,49.5,49.5,42
2462,41,34.5,48,42,50.5,45.5
2464,45,45,37,44.5,46,45.5
2466,40.5,41.5,56,56,48.5,47
2468,40.5,46,39.5,39.5,47,40.5
2470,41.5,41,45,46,49,46.5
2472,38.5,38,42.5,50,40.5,47
2474,34.5,43,50,39.5,40.5,54
2476,41.5,44.5,37,41,52,49
2478,45,41,50.5,45.5,40.5,44
2480,46.5,38,42.5,41.5,46.5,45.5
2482,47,44.5,47,45.5,49.5,54.5
2484,46.5,46.5,38.5,38,46.5,45.5
2486,41,38.5,51.5,51,40,37.5
2488,47,39,53,46,43,42.5
2490,43,53.5,45,38.5,47.5,53.5
2492,40.5,36.5,49,54,48.5,45
2494,46,40.5,45.5,50.5,52,42.5
2496,40.5,50,52.5,51.5,54,41.5
2498,40,46.5,42,50.5,40,44.5
2500,45,50.5,51.5,44.5,49,54.5
2502,44.5,46.5,49.5,58.5,39.5,44
2504,36,51,51,51,55,50
2506,47.5,48,50,39.5,46,61
2508,51.5,42,55.5,53,47,45
2510,43.5,51.5,51.5,42.5,53.5,57
2512,48,45.5,57.5,51,46,44.5
2514,43.5,47.5,51,48.5,48.5,48.5
2516,53.5,43,47,43,46.5,51
2518,53.5,52.5,48.5,53,46.5,62
2520,48.5,53.5,49.5,49,50.5,48.5
2522,48.5,51,56.5,58,54,45.5
2524,51.5,49.5,54,55,52,49.5
2526,58,47,58,54.5,59,61
2528,56,48,57.5,54,55.5,50.5
2530,55.5,49,49,64.5,58,49
2532,52.5,48.5,58.5,60,50.5,61
2534,57.5,51.5,56.5,61.5,60.5,56.5
2536,55,52.5,55.5,68,48.5,46
2538,54,48.5,47.5,59.5,55.5,65
2540,47.5,69,54.5,57,54,58.5
2542,51.5,58.5,53.5,62.5,56,50
2544,52.5,59.5,57.5,68,60.5,48.5
2546,56.5,60.5,70.5,59,59.5,60
2548,54.5,59,54,50,57,55
2550,58,59,60,56.5,53.5,56.5
2552,62,59,55.5,62,66,57
2554,54,55.5,58.5,55,52.5,64
2556,56,58.5,54.5,72,60,65.5
2558,62,59,63.5,77.5,62.5,59.5
2560,67.5,53,60,72.5,69.5,65.5
2562,60,67,72.5,72.5,65,66
2564,68.5,79,65.5,66,57,74
2566,68.5,66.5,67,66,73,78.5
2568,53,56,68.5,83.5,76.5,73
2570,56.5,69.5,65.5,76,79.5,75.5
2572,54.5,69,77,63.5,75.5,65.5
2574,70,80,65.5,72,90,70
2576,66.5,72.5,75,59.5,70.5,77
2578,61,69,73,82,73.5,82.5
2580,72,65.5,74,68,87.5,77
2582,71.5,77.5,73,73,74.5,76
2584,70,71.5,74.5,90,85.5,71.5
2586,72.5,72,84.5,88.5,88.5,90
2588,67.5,81,79,89.5,81.5,78
2590,69.5,84,76.5,91,92.5,90.5
2592,79.5,97,81.5,87,89,83.5
2594,80.5,84.5,92,105.5,95.5,93.5
2596,83.5,86,87,85,102.5,85.5
2598,78,94.5,99,102,102,92.5
2600,85.5,95,94,109.5,96,94
2602,89,86,92.5,115,113,95.5
2604,92,90,104,110.5,107.5,102.5
2606,98.5,88.5,101,110.5,116,106
2608,101,85,107,127,126,111.5
2610,93,112.5,112.5,118,134,111
2612,97.5,101,111,127,113.5,121
2614,103.5,117,119.5,118.5,127,133
2616,100.5,124.5,134,150,140,132
2618,98,128,130.5,126.5,145,117
2620,104,112,136.5,161.5,143,126
2622,112.5,151.5,131.5,172,148.5,136
2624,131,135,165.5,156,165,142
2626,117,137,165.5,176,177.5,158.5
2628,134,158.5,167.5,188.5,168,155
2630,142.5,182,177,169,197,164.5
2632,158.5,181,187,198.5,208,190.5
2634,160,170.5,192,200.5,211,186
2636,171.5,203,204,213.5,214.5,228
2638,186.5,206.5,219.5,238,222.5,210
2640,206,236,232,252,257.5,234
2642,209,220,283,276.5,260.5,245
2644,231,275.5,287.5,300,282.5,243.5
2646,260.5,287,309,295,278.5,267
2648,269.5,311.5,305.5,335,293.5,273.5
2650,310,338,346.5,343,334,278.5
2652,315.5,365.5,372,383,324.5,282.5
2654,365,375,369.5,374,385.5,318
2656,396,450.5,461,390.5,367,340.5
2658,430.5,463,475.5,455.5,421.5,325.5
2660,463,510.5,493.5,488,403.5,383
2662,509.5,553,531.5,504,415,374.5
2664,585.5,587,575.5,506,458.5,389
2666,648.5,655,622,561,503.5,419
2668,700.5,669,665.5,592.5,514.5,420
2670,781,743.5,697,589,554.5,437
2672,799,788.5,745,652,562,471
2674,947.5,799.5,773.5,703,614.5,487
2676,968.5,886.5,832,697.5,579,476
2678,1024,940,872,736,624,466.5
2680,999.5,956.5,853,738,618.5,496.5
2682,1107.5,1003.5,859.5,739.5,623.5,496.5
2684,1129,1044,880.5,745.5,625.5,505.5
2686,1098,1010,902.5,741.5,653,498
2688,1110.5,985.5,878.5,745,616.5,519.5
2690,1126.5,1008,856,745,642.5,485
2692,1049,933.5,834.5,726,600,495
2694,978,893,810,708,608.5,464.5
2696,888,866,731.5,681.5,596,480.5
2698,856,785.5,756.5,683,594.5,485.5
2700,784.5,778.5,683.5,617,548.5,447.5
2702,692,699,627,615.5,528.5,417.5
2704,649.5,613,603.5,574,510.5,418
2706,552,608.5,569.5,533.5,498,394.5
2708,527,554.5,506.5,499.5,435.5,422.5
2710,510,469,511,500.5,424,389
2712,431,473.5,472.5,446.5,427.5,374
2714,382,425.5,424,415.5,371,321.5
2716,342.5,365,413,396,367.5,321.5
2718,321.5,364.5,363,357.5,351,305.5
2720,309.5,332,330,352.5,335.5,279.5
2722,272,300.5,306,339.5,303,279.5
2724,255.5,285.5,317.5,300.5,290.5,277.5
2726,215.5,261,259.5,288.5,269,259
2728,232,248.5,256,265,268,237
2730,205,221.5,236.5,240,254.5,217.5
2732,182.5,224.5,236.5,226.5,222.5,227
2734,183.5,201,209.5,210,221,202.5
2736,178.5,182,185.5,209.5,217.5,200
2738,156.5,183,187,202,198.5,190.5
2740,156.5,175.5,183,181,195.5,179
2742,132.5,172,177.5,174,180.5,164.5
2744,139.5,150,157,157,178,149
2746,119.5,146.5,157,166,159.5,144
2748,123,136.5,149.5,152,155,150
2750,120,119,136.5,153,155.5,131.5
2752,98,124.5,134.5,141.5,129.5,131
2754,108.5,123,132.5,114,137,132
2756,91,128,125,134,131,127
2758,105.5,110,116.5,122.5,126,117.5
2760,104.5,97,110,116,126,114
2762,91,100,101,114.5,118,115
2764,88,95.5,112,119.5,112.5,112.5
2766,90,97.5,111,112,114.5,117
2768,89.5,92.5,92,99,102,98
2770,98,97,95.5,100.5,97,99.5
2772,84.5,90,80,112,102,105.5
2774,74.5,94,91.5,100,94.5,94.5
2776,81.5,89,83.5,91,87,89.5
2778,78.5,86,98,90,90,82.5
2780,84,83.5,86,87.5,79.5,85.5
2782,64.5,92.5,74,96,86.5,81
2784,71,84,91.5,78.5,77,72.5
2786,80,80,74.5,85.5,76.5,92
2788,66,79,77.5,80,88,78.5
2790,70,81.5,76,91.5,74,83.5
2792,71,73.5,80.5,83,79.5,74.5
2794,66.5,70.5,72.5,75,72,63.5
2796,69,62.5,79.5,81.5,67,70.5
2798,67,75,72.5,83,75.5,68.5
2800,62.5,59.5,76.5,79.5,81.5,68
2802,69,66,67,72.5,80,69.5
2804,58,62.5,63.5,78,72,74
2806,61.5,67.5,74,61.5,65.5,67
2808,62,67.5,66,72.5,67.5,72
2810,66.5,69,54.5,77.5,69.5,69.5
2812,56.5,52,70,69,69.5,75.5
2814,60.5,60.5,75,51.5,58.5,66.5
2816,53,62.5,64,72.5,69,56
2818,54.5,67.5,64,62,66.5,74
2820,65,63,58.5,64.5,74,76
2822,56,46,61.5,63,60,62
2824,46.5,62,55,59,72,64.5
2826,50.5,74,64.5,59.5,69,70
2828,55.5,59.5,58.5,56.5,70.5,60
2830,46.5,57.5,57.5,63,53.5,56.5
2832,64,48.5,59.5,60.5,56.5,55
2834,42.5,54,51,57.5,54,56
2836,44,46,50,62,59,58
2838,61.5,50.5,47.5,46,55,49
2840,45.5,52.5,63.5,57.5,61,58.5
2842,39,48,57,58.5,55.5,51
2844,56,53,49.5,51,55.5,58.5
2846,58.5,48,61,74,59.5,52
2848,40.5,54.5,60,53,55,49
2850,49,52,59,56.5,56,54.5
2852,53,54.5,45,57.5,54.5,48.5
2854,51,48,65,62,62,59.5
2856,42.5,50,42,59.5,49.5,52.5
2858,60.5,46.5,53.5,49.5,47,55
2860,44.5,51.5,65,54,42.5,52
2862,51,51,59.5,56.5,57.5,50
2864,50,50.5,52,52,48,43.5
2866,48.5,53.5,40.5,60,43.5,54.5
2868,52.5,54.5,50,52.5,51,48.5
2870,54,48.5,55,54,52,61.5
2872,44.5,54,51,47.5,53,48
2874,50.5,43,51.5,49,57.5,43.5
2876,42,38,52.5,61.5,46,44
2878,51.5,50,55.5,48.5,44,43
2880,38.5,49.5,63,48.5,54,50
2882,52.5,53.5,45.5,51,39.5,50
2884,43,58,40.5,44,57,47.5
2886,47,47.5,43,50,47.5,54.5
2888,47,45,55.5,44,52.5,45.5
2890,46.5,42,47,52.5,48.5,53.5
2892,45,33,51.5,43,50.5,42
2894,47,51,52.5,41.5,50.5,52
2896,43.5,48.5,45,54.5,49,48
2898,48.5,51,44.5,47,48,52
2900,50.5,39,48,51.5,49,45.5
2902,45.5,46.5,51,48.5,47,40
2904,44.5,39.5,56.5,41,55,50.5
2906,45,53.5,49,49,42.5,55.5
2908,46,45,44,52.5,43,54
2910,38,49.5,43.5,53,47,38
2912,53.5,44,53,50.5,55.5,50
2914,41.5,48.5,44.5,50,39.5,44
2916,43.5,40,51.5,51.5,46,45
2918,46,42.5,43,44.5,46,49
2920,45,53,42.5,43,46.5,50.5
2922,44,53,45.5,47.5,48.5,41
2924,46.5,50,38.5,44.5,40,46.5
2926,48.5,43.5,43,48.5,43,44.5
2928,49.5,51,53,51,50,52
2930,42.5,38.5,43.5,43.5,46.5,37
2932,43,40.5,52.5,43,48,38
2934,45.5,46.5,35.5,50.5,45.5,48
2936,42,48.5,46,40,49.5,54.5
2938,41.5,47,48.5,49,35.5,51.5
2940,49.5,45,51,44,41,45.5
2942,46,39,40.5,46,50,43.5
2944,51.5,52,57.5,55.5,40,48
2946,51,43.5,41,54.5,50.5,48
2948,43,39.5,47,47.5,48.5,43
2950,50,40,46.5,47.5,44,52.5
2952,37,44.5,38,54,42.5,46
2954,32,43.5,48.5,41,44.5,50.5
2956,31.5,40.5,49.5,44.5,54,49
2958,47,47.5,53,49,42,45
2960,42.5,42,49.5,49.5,39.5,44
2962,46.5,49,42,45,38,43
2964,50.5,44.5,41,44,53,44
2966,43.5,49,49,50.5,49.5,44.5
2968,38.5,43,38.5,40.5,44.5,53
2970,42.5,48.5,46.5,45,38,47
2972,47,43,40,45,40,45
2974,45,45.5,45.5,42,46,46
2976,36,49,48,34,48,42
2978,41.5,44.5,46,44.5,52,36
2980,49.5,41.5,40,37.5,48.5,41.5
2982,40.5,47,40,48,45,52.5
2984,41.5,40.5,48.5,40,42.5,48
2986,43.5,38.5,44,41,44.5,40
2988,44,45,41,47,38.5,43
2990,42.5,43,43,43,49.5,45.5
2992,46,49.5,47.5,43,47.5,40
2994,52.5,49.5,45.5,46,39,48
2996,47.5,39.5,39,39.5,41,44
2998,37.5,49,49.5,38,44,46
3000,37.5,45,42.5,38.5,43.5,41
